"# Channel 1"
"# Trace 1"
Frequency, Formatted Data, Formatted Data
+1.00000000000E+005, +3.83936259408E-003, +0.00000000000E+000
+2.25031289111E+005, +7.30206399387E-003, +0.00000000000E+000
+3.50062578223E+005, +1.50743255305E-002, +0.00000000000E+000
+4.75093867334E+005, +2.28625449317E-002, +0.00000000000E+000
+6.00125156446E+005, +3.37109923621E-002, +0.00000000000E+000
+7.25156445557E+005, +4.48054254495E-002, +0.00000000000E+000
+8.50187734668E+005, +6.04566872602E-002, +0.00000000000E+000
+9.75219023780E+005, +7.48980122340E-002, +0.00000000000E+000
+1.10025031289E+006, +9.26611924279E-002, +0.00000000000E+000
+1.22528160200E+006, +1.09687370626E-001, +0.00000000000E+000
+1.35031289111E+006, +1.30663257712E-001, +0.00000000000E+000
+1.47534418023E+006, +1.51627807072E-001, +0.00000000000E+000
+1.60037546934E+006, +1.71308231650E-001, +0.00000000000E+000
+1.72540675845E+006, +1.94177621130E-001, +0.00000000000E+000
+1.85043804756E+006, +2.15584599752E-001, +0.00000000000E+000
+1.97546933667E+006, +2.37019372600E-001, +0.00000000000E+000
+2.10050062578E+006, +2.60227684102E-001, +0.00000000000E+000
+2.22553191489E+006, +2.80325211981E-001, +0.00000000000E+000
+2.35056320401E+006, +3.03218846907E-001, +0.00000000000E+000
+2.47559449312E+006, +3.25893575999E-001, +0.00000000000E+000
+2.60062578223E+006, +3.46539768468E-001, +0.00000000000E+000
+2.72565707134E+006, +3.68018691861E-001, +0.00000000000E+000
+2.85068836045E+006, +3.87942350626E-001, +0.00000000000E+000
+2.97571964956E+006, +4.08902506405E-001, +0.00000000000E+000
+3.10075093867E+006, +4.29601025979E-001, +0.00000000000E+000
+3.22578222778E+006, +4.47654829397E-001, +0.00000000000E+000
+3.35081351690E+006, +4.67866229445E-001, +0.00000000000E+000
+3.47584480601E+006, +4.84754138745E-001, +0.00000000000E+000
+3.60087609512E+006, +5.01633584489E-001, +0.00000000000E+000
+3.72590738423E+006, +5.18971933968E-001, +0.00000000000E+000
+3.85093867334E+006, +5.34848705854E-001, +0.00000000000E+000
+3.97596996245E+006, +5.51367999177E-001, +0.00000000000E+000
+4.10100125156E+006, +5.66185220596E-001, +0.00000000000E+000
+4.22603254068E+006, +5.79899224010E-001, +0.00000000000E+000
+4.35106382979E+006, +5.94085500555E-001, +0.00000000000E+000
+4.47609511890E+006, +6.08823113585E-001, +0.00000000000E+000
+4.60112640801E+006, +6.22721355239E-001, +0.00000000000E+000
+4.72615769712E+006, +6.33340561689E-001, +0.00000000000E+000
+4.85118898623E+006, +6.45575332578E-001, +0.00000000000E+000
+4.97622027534E+006, +6.57527069974E-001, +0.00000000000E+000
+5.10125156446E+006, +6.68493785946E-001, +0.00000000000E+000
+5.22628285357E+006, +6.78450906424E-001, +0.00000000000E+000
+5.35131414268E+006, +6.88661868274E-001, +0.00000000000E+000
+5.47634543179E+006, +6.98974709387E-001, +0.00000000000E+000
+5.60137672090E+006, +7.09096678748E-001, +0.00000000000E+000
+5.72640801001E+006, +7.16420241209E-001, +0.00000000000E+000
+5.85143929912E+006, +7.26560633186E-001, +0.00000000000E+000
+5.97647058824E+006, +7.33709921899E-001, +0.00000000000E+000
+6.10150187735E+006, +7.42795569130E-001, +0.00000000000E+000
+6.22653316646E+006, +7.48923254346E-001, +0.00000000000E+000
+6.35156445557E+006, +7.57104246984E-001, +0.00000000000E+000
+6.47659574468E+006, +7.64429101564E-001, +0.00000000000E+000
+6.60162703379E+006, +7.71038227337E-001, +0.00000000000E+000
+6.72665832290E+006, +7.77458675550E-001, +0.00000000000E+000
+6.85168961202E+006, +7.83902022205E-001, +0.00000000000E+000
+6.97672090113E+006, +7.90106243261E-001, +0.00000000000E+000
+7.10175219024E+006, +7.95504317289E-001, +0.00000000000E+000
+7.22678347935E+006, +8.01148287119E-001, +0.00000000000E+000
+7.35181476846E+006, +8.06828792597E-001, +0.00000000000E+000
+7.47684605757E+006, +8.11517331532E-001, +0.00000000000E+000
+7.60187734668E+006, +8.16993474035E-001, +0.00000000000E+000
+7.72690863579E+006, +8.22503293908E-001, +0.00000000000E+000
+7.85193992491E+006, +8.26937115373E-001, +0.00000000000E+000
+7.97697121402E+006, +8.31076428354E-001, +0.00000000000E+000
+8.10200250313E+006, +8.35297613687E-001, +0.00000000000E+000
+8.22703379224E+006, +8.39693113765E-001, +0.00000000000E+000
+8.35206508135E+006, +8.43750112048E-001, +0.00000000000E+000
+8.47709637046E+006, +8.47794449248E-001, +0.00000000000E+000
+8.60212765957E+006, +8.51566547818E-001, +0.00000000000E+000
+8.72715894869E+006, +8.55315559486E-001, +0.00000000000E+000
+8.85219023780E+006, +8.58990954564E-001, +0.00000000000E+000
+8.97722152691E+006, +8.61978343796E-001, +0.00000000000E+000
+9.10225281602E+006, +8.65426797607E-001, +0.00000000000E+000
+9.22728410513E+006, +8.68735557941E-001, +0.00000000000E+000
+9.35231539424E+006, +8.71912374073E-001, +0.00000000000E+000
+9.47734668335E+006, +8.74884583772E-001, +0.00000000000E+000
+9.60237797247E+006, +8.77562952342E-001, +0.00000000000E+000
+9.72740926158E+006, +8.80706418430E-001, +0.00000000000E+000
+9.85244055069E+006, +8.83293114348E-001, +0.00000000000E+000
+9.97747183980E+006, +8.85683410123E-001, +0.00000000000E+000
+1.01025031289E+007, +8.88557856500E-001, +0.00000000000E+000
+1.02275344180E+007, +8.90532176068E-001, +0.00000000000E+000
+1.03525657071E+007, +8.93380579973E-001, +0.00000000000E+000
+1.04775969962E+007, +8.95795399082E-001, +0.00000000000E+000
+1.06026282854E+007, +8.98080764913E-001, +0.00000000000E+000
+1.07276595745E+007, +9.00157925755E-001, +0.00000000000E+000
+1.08526908636E+007, +9.02164797440E-001, +0.00000000000E+000
+1.09777221527E+007, +9.04643453052E-001, +0.00000000000E+000
+1.11027534418E+007, +9.06433924960E-001, +0.00000000000E+000
+1.12277847309E+007, +9.08697762340E-001, +0.00000000000E+000
+1.13528160200E+007, +9.10846251137E-001, +0.00000000000E+000
+1.14778473091E+007, +9.11975455387E-001, +0.00000000000E+000
+1.16028785982E+007, +9.14003064967E-001, +0.00000000000E+000
+1.17279098874E+007, +9.15463739528E-001, +0.00000000000E+000
+1.18529411765E+007, +9.17465534358E-001, +0.00000000000E+000
+1.19779724656E+007, +9.18755004879E-001, +0.00000000000E+000
+1.21030037547E+007, +9.20538484697E-001, +0.00000000000E+000
+1.22280350438E+007, +9.21881236068E-001, +0.00000000000E+000
+1.23530663329E+007, +9.23563189584E-001, +0.00000000000E+000
+1.24780976220E+007, +9.25235992200E-001, +0.00000000000E+000
+1.26031289111E+007, +9.27187815089E-001, +0.00000000000E+000
+1.27281602003E+007, +9.28533320844E-001, +0.00000000000E+000
+1.28531914894E+007, +9.29142122194E-001, +0.00000000000E+000
+1.29782227785E+007, +9.30558643642E-001, +0.00000000000E+000
+1.31032540676E+007, +9.31991122798E-001, +0.00000000000E+000
+1.32282853567E+007, +9.33431921610E-001, +0.00000000000E+000
+1.33533166458E+007, +9.34528827094E-001, +0.00000000000E+000
+1.34783479349E+007, +9.35837907199E-001, +0.00000000000E+000
+1.36033792240E+007, +9.37018011939E-001, +0.00000000000E+000
+1.37284105131E+007, +9.38388154760E-001, +0.00000000000E+000
+1.38534418023E+007, +9.39535981234E-001, +0.00000000000E+000
+1.39784730914E+007, +9.40207358415E-001, +0.00000000000E+000
+1.41035043805E+007, +9.41155068258E-001, +0.00000000000E+000
+1.42285356696E+007, +9.42501648238E-001, +0.00000000000E+000
+1.43535669587E+007, +9.43359135342E-001, +0.00000000000E+000
+1.44785982478E+007, +9.44000637276E-001, +0.00000000000E+000
+1.46036295369E+007, +9.45081595696E-001, +0.00000000000E+000
+1.47286608260E+007, +9.46281940956E-001, +0.00000000000E+000
+1.48536921151E+007, +9.46699326427E-001, +0.00000000000E+000
+1.49787234043E+007, +9.47848116929E-001, +0.00000000000E+000
+1.51037546934E+007, +9.49121681011E-001, +0.00000000000E+000
+1.52287859825E+007, +9.49387889289E-001, +0.00000000000E+000
+1.53538172716E+007, +9.50315609053E-001, +0.00000000000E+000
+1.54788485607E+007, +9.51436704292E-001, +0.00000000000E+000
+1.56038798498E+007, +9.51881709083E-001, +0.00000000000E+000
+1.57289111389E+007, +9.52715988463E-001, +0.00000000000E+000
+1.58539424280E+007, +9.53734076933E-001, +0.00000000000E+000
+1.59789737171E+007, +9.53929626293E-001, +0.00000000000E+000
+1.61040050063E+007, +9.55095039770E-001, +0.00000000000E+000
+1.62290362954E+007, +9.56091090847E-001, +0.00000000000E+000
+1.63540675845E+007, +9.56659265199E-001, +0.00000000000E+000
+1.64790988736E+007, +9.57438831353E-001, +0.00000000000E+000
+1.66041301627E+007, +9.57819131034E-001, +0.00000000000E+000
+1.67291614518E+007, +9.58967590136E-001, +0.00000000000E+000
+1.68541927409E+007, +9.59907847562E-001, +0.00000000000E+000
+1.69792240300E+007, +9.59744314150E-001, +0.00000000000E+000
+1.71042553191E+007, +9.61346606601E-001, +0.00000000000E+000
+1.72292866083E+007, +9.61721518671E-001, +0.00000000000E+000
+1.73543178974E+007, +9.61938596460E-001, +0.00000000000E+000
+1.74793491865E+007, +9.62385293622E-001, +0.00000000000E+000
+1.76043804756E+007, +9.63183580168E-001, +0.00000000000E+000
+1.77294117647E+007, +9.63492909666E-001, +0.00000000000E+000
+1.78544430538E+007, +9.64170754871E-001, +0.00000000000E+000
+1.79794743429E+007, +9.64669549346E-001, +0.00000000000E+000
+1.81045056320E+007, +9.65163073761E-001, +0.00000000000E+000
+1.82295369212E+007, +9.65950387945E-001, +0.00000000000E+000
+1.83545682103E+007, +9.66152401043E-001, +0.00000000000E+000
+1.84795994994E+007, +9.66693806366E-001, +0.00000000000E+000
+1.86046307885E+007, +9.67122043030E-001, +0.00000000000E+000
+1.87296620776E+007, +9.67912299835E-001, +0.00000000000E+000
+1.88546933667E+007, +9.67945959507E-001, +0.00000000000E+000
+1.89797246558E+007, +9.68478825409E-001, +0.00000000000E+000
+1.91047559449E+007, +9.68748036555E-001, +0.00000000000E+000
+1.92297872340E+007, +9.69655348924E-001, +0.00000000000E+000
+1.93548185232E+007, +9.69235363543E-001, +0.00000000000E+000
+1.94798498123E+007, +9.69801711334E-001, +0.00000000000E+000
+1.96048811014E+007, +9.70728118718E-001, +0.00000000000E+000
+1.97299123905E+007, +9.71174092316E-001, +0.00000000000E+000
+1.98549436796E+007, +9.71123342089E-001, +0.00000000000E+000
+1.99799749687E+007, +9.71918179619E-001, +0.00000000000E+000
+2.01050062578E+007, +9.71782738495E-001, +0.00000000000E+000
+2.02300375469E+007, +9.72054930740E-001, +0.00000000000E+000
+2.03550688360E+007, +9.72813636660E-001, +0.00000000000E+000
+2.04801001252E+007, +9.73178738593E-001, +0.00000000000E+000
+2.06051314143E+007, +9.73499151633E-001, +0.00000000000E+000
+2.07301627034E+007, +9.73767829737E-001, +0.00000000000E+000
+2.08551939925E+007, +9.74375044890E-001, +0.00000000000E+000
+2.09802252816E+007, +9.74375723195E-001, +0.00000000000E+000
+2.11052565707E+007, +9.75330164005E-001, +0.00000000000E+000
+2.12302878598E+007, +9.75322732976E-001, +0.00000000000E+000
+2.13553191489E+007, +9.75970680604E-001, +0.00000000000E+000
+2.14803504380E+007, +9.75853105471E-001, +0.00000000000E+000
+2.16053817272E+007, +9.76207371009E-001, +0.00000000000E+000
+2.17304130163E+007, +9.77013666666E-001, +0.00000000000E+000
+2.18554443054E+007, +9.77295284708E-001, +0.00000000000E+000
+2.19804755945E+007, +9.76983739902E-001, +0.00000000000E+000
+2.21055068836E+007, +9.76778880724E-001, +0.00000000000E+000
+2.22305381727E+007, +9.77734981890E-001, +0.00000000000E+000
+2.23555694618E+007, +9.77944297833E-001, +0.00000000000E+000
+2.24806007509E+007, +9.77715073255E-001, +0.00000000000E+000
+2.26056320401E+007, +9.78033397404E-001, +0.00000000000E+000
+2.27306633292E+007, +9.78439292317E-001, +0.00000000000E+000
+2.28556946183E+007, +9.78718697507E-001, +0.00000000000E+000
+2.29807259074E+007, +9.78708519977E-001, +0.00000000000E+000
+2.31057571965E+007, +9.79185653248E-001, +0.00000000000E+000
+2.32307884856E+007, +9.79107131873E-001, +0.00000000000E+000
+2.33558197747E+007, +9.79230317239E-001, +0.00000000000E+000
+2.34808510638E+007, +9.79672426188E-001, +0.00000000000E+000
+2.36058823529E+007, +9.79851570365E-001, +0.00000000000E+000
+2.37309136421E+007, +9.79537178163E-001, +0.00000000000E+000
+2.38559449312E+007, +9.80661805517E-001, +0.00000000000E+000
+2.39809762203E+007, +9.80411403601E-001, +0.00000000000E+000
+2.41060075094E+007, +9.80863268974E-001, +0.00000000000E+000
+2.42310387985E+007, +9.80894958131E-001, +0.00000000000E+000
+2.43560700876E+007, +9.81468188120E-001, +0.00000000000E+000
+2.44811013767E+007, +9.81204716593E-001, +0.00000000000E+000
+2.46061326658E+007, +9.81601581255E-001, +0.00000000000E+000
+2.47311639549E+007, +9.82027634319E-001, +0.00000000000E+000
+2.48561952441E+007, +9.81214302368E-001, +0.00000000000E+000
+2.49812265332E+007, +9.81784699792E-001, +0.00000000000E+000
+2.51062578223E+007, +9.81774122184E-001, +0.00000000000E+000
+2.52312891114E+007, +9.82291824076E-001, +0.00000000000E+000
+2.53563204005E+007, +9.82062415536E-001, +0.00000000000E+000
+2.54813516896E+007, +9.82169480125E-001, +0.00000000000E+000
+2.56063829787E+007, +9.82984132080E-001, +0.00000000000E+000
+2.57314142678E+007, +9.83335966205E-001, +0.00000000000E+000
+2.58564455569E+007, +9.83462600916E-001, +0.00000000000E+000
+2.59814768461E+007, +9.84079034742E-001, +0.00000000000E+000
+2.61065081352E+007, +9.83799135188E-001, +0.00000000000E+000
+2.62315394243E+007, +9.84066818813E-001, +0.00000000000E+000
+2.63565707134E+007, +9.84663539595E-001, +0.00000000000E+000
+2.64816020025E+007, +9.84173950029E-001, +0.00000000000E+000
+2.66066332916E+007, +9.84866300649E-001, +0.00000000000E+000
+2.67316645807E+007, +9.85144781089E-001, +0.00000000000E+000
+2.68566958698E+007, +9.84311356737E-001, +0.00000000000E+000
+2.69817271589E+007, +9.85237817813E-001, +0.00000000000E+000
+2.71067584481E+007, +9.85057918211E-001, +0.00000000000E+000
+2.72317897372E+007, +9.85604238526E-001, +0.00000000000E+000
+2.73568210263E+007, +9.85560706249E-001, +0.00000000000E+000
+2.74818523154E+007, +9.86274771339E-001, +0.00000000000E+000
+2.76068836045E+007, +9.86008300175E-001, +0.00000000000E+000
+2.77319148936E+007, +9.85600793624E-001, +0.00000000000E+000
+2.78569461827E+007, +9.86720623749E-001, +0.00000000000E+000
+2.79819774718E+007, +9.86493486568E-001, +0.00000000000E+000
+2.81070087610E+007, +9.86677777411E-001, +0.00000000000E+000
+2.82320400501E+007, +9.86920682741E-001, +0.00000000000E+000
+2.83570713392E+007, +9.87313222408E-001, +0.00000000000E+000
+2.84821026283E+007, +9.86930380309E-001, +0.00000000000E+000
+2.86071339174E+007, +9.87272495242E-001, +0.00000000000E+000
+2.87321652065E+007, +9.87905940347E-001, +0.00000000000E+000
+2.88571964956E+007, +9.87414727538E-001, +0.00000000000E+000
+2.89822277847E+007, +9.87876607974E-001, +0.00000000000E+000
+2.91072590738E+007, +9.87841778700E-001, +0.00000000000E+000
+2.92322903630E+007, +9.87648709222E-001, +0.00000000000E+000
+2.93573216521E+007, +9.88551597852E-001, +0.00000000000E+000
+2.94823529412E+007, +9.88468839607E-001, +0.00000000000E+000
+2.96073842303E+007, +9.88918863624E-001, +0.00000000000E+000
+2.97324155194E+007, +9.88721119292E-001, +0.00000000000E+000
+2.98574468085E+007, +9.88618588494E-001, +0.00000000000E+000
+2.99824780976E+007, +9.88745979514E-001, +0.00000000000E+000
+3.01075093867E+007, +9.88223234212E-001, +0.00000000000E+000
+3.02325406758E+007, +9.88512305275E-001, +0.00000000000E+000
+3.03575719650E+007, +9.89525512796E-001, +0.00000000000E+000
+3.04826032541E+007, +9.89646955418E-001, +0.00000000000E+000
+3.06076345432E+007, +9.89608410685E-001, +0.00000000000E+000
+3.07326658323E+007, +9.89510997729E-001, +0.00000000000E+000
+3.08576971214E+007, +9.89368481813E-001, +0.00000000000E+000
+3.09827284105E+007, +9.89217812990E-001, +0.00000000000E+000
+3.11077596996E+007, +9.89662054269E-001, +0.00000000000E+000
+3.12327909887E+007, +9.89725827506E-001, +0.00000000000E+000
+3.13578222778E+007, +9.89673560523E-001, +0.00000000000E+000
+3.14828535670E+007, +9.90388813077E-001, +0.00000000000E+000
+3.16078848561E+007, +9.89772579821E-001, +0.00000000000E+000
+3.17329161452E+007, +9.90115765650E-001, +0.00000000000E+000
+3.18579474343E+007, +9.90279098408E-001, +0.00000000000E+000
+3.19829787234E+007, +9.90648273408E-001, +0.00000000000E+000
+3.21080100125E+007, +9.90777828773E-001, +0.00000000000E+000
+3.22330413016E+007, +9.90293371302E-001, +0.00000000000E+000
+3.23580725907E+007, +9.90346352306E-001, +0.00000000000E+000
+3.24831038798E+007, +9.90668827444E-001, +0.00000000000E+000
+3.26081351690E+007, +9.90983926524E-001, +0.00000000000E+000
+3.27331664581E+007, +9.91008894941E-001, +0.00000000000E+000
+3.28581977472E+007, +9.90623235304E-001, +0.00000000000E+000
+3.29832290363E+007, +9.91457920545E-001, +0.00000000000E+000
+3.31082603254E+007, +9.91026211121E-001, +0.00000000000E+000
+3.32332916145E+007, +9.90861545437E-001, +0.00000000000E+000
+3.33583229036E+007, +9.91067400456E-001, +0.00000000000E+000
+3.34833541927E+007, +9.91869771639E-001, +0.00000000000E+000
+3.36083854819E+007, +9.91340109470E-001, +0.00000000000E+000
+3.37334167710E+007, +9.91437294131E-001, +0.00000000000E+000
+3.38584480601E+007, +9.92111893880E-001, +0.00000000000E+000
+3.39834793492E+007, +9.91796746802E-001, +0.00000000000E+000
+3.41085106383E+007, +9.91873201253E-001, +0.00000000000E+000
+3.42335419274E+007, +9.91695661072E-001, +0.00000000000E+000
+3.43585732165E+007, +9.92095659632E-001, +0.00000000000E+000
+3.44836045056E+007, +9.91928861294E-001, +0.00000000000E+000
+3.46086357947E+007, +9.92348020926E-001, +0.00000000000E+000
+3.47336670839E+007, +9.92306851737E-001, +0.00000000000E+000
+3.48586983730E+007, +9.92563218926E-001, +0.00000000000E+000
+3.49837296621E+007, +9.92466997732E-001, +0.00000000000E+000
+3.51087609512E+007, +9.92756067416E-001, +0.00000000000E+000
+3.52337922403E+007, +9.92107967728E-001, +0.00000000000E+000
+3.53588235294E+007, +9.92418053711E-001, +0.00000000000E+000
+3.54838548185E+007, +9.92573305238E-001, +0.00000000000E+000
+3.56088861076E+007, +9.92332543406E-001, +0.00000000000E+000
+3.57339173967E+007, +9.92361319799E-001, +0.00000000000E+000
+3.58589486859E+007, +9.92651403212E-001, +0.00000000000E+000
+3.59839799750E+007, +9.92797329393E-001, +0.00000000000E+000
+3.61090112641E+007, +9.93002923062E-001, +0.00000000000E+000
+3.62340425532E+007, +9.93059173245E-001, +0.00000000000E+000
+3.63590738423E+007, +9.93047745165E-001, +0.00000000000E+000
+3.64841051314E+007, +9.93119176582E-001, +0.00000000000E+000
+3.66091364205E+007, +9.92832628861E-001, +0.00000000000E+000
+3.67341677096E+007, +9.93303157166E-001, +0.00000000000E+000
+3.68591989987E+007, +9.92246965707E-001, +0.00000000000E+000
+3.69842302879E+007, +9.93115729547E-001, +0.00000000000E+000
+3.71092615770E+007, +9.92847735593E-001, +0.00000000000E+000
+3.72342928661E+007, +9.92991566595E-001, +0.00000000000E+000
+3.73593241552E+007, +9.93373989317E-001, +0.00000000000E+000
+3.74843554443E+007, +9.93581580901E-001, +0.00000000000E+000
+3.76093867334E+007, +9.93798230289E-001, +0.00000000000E+000
+3.77344180225E+007, +9.93670538168E-001, +0.00000000000E+000
+3.78594493116E+007, +9.93367993025E-001, +0.00000000000E+000
+3.79844806008E+007, +9.93308127857E-001, +0.00000000000E+000
+3.81095118899E+007, +9.93553651145E-001, +0.00000000000E+000
+3.82345431790E+007, +9.93711955383E-001, +0.00000000000E+000
+3.83595744681E+007, +9.93961053975E-001, +0.00000000000E+000
+3.84846057572E+007, +9.94043245071E-001, +0.00000000000E+000
+3.86096370463E+007, +9.93738441477E-001, +0.00000000000E+000
+3.87346683354E+007, +9.93880042804E-001, +0.00000000000E+000
+3.88596996245E+007, +9.93983077119E-001, +0.00000000000E+000
+3.89847309136E+007, +9.94261794371E-001, +0.00000000000E+000
+3.91097622028E+007, +9.94091278425E-001, +0.00000000000E+000
+3.92347934919E+007, +9.93595174961E-001, +0.00000000000E+000
+3.93598247810E+007, +9.94360993259E-001, +0.00000000000E+000
+3.94848560701E+007, +9.93982143951E-001, +0.00000000000E+000
+3.96098873592E+007, +9.94010001020E-001, +0.00000000000E+000
+3.97349186483E+007, +9.94785506489E-001, +0.00000000000E+000
+3.98599499374E+007, +9.94324347515E-001, +0.00000000000E+000
+3.99849812265E+007, +9.94327716942E-001, +0.00000000000E+000
+4.01100125156E+007, +9.94214766916E-001, +0.00000000000E+000
