"# Channel 1"
"# Trace 1"
Frequency, Formatted Data, Formatted Data
+1.00000000000E+005, +3.04547648487E-002, +0.00000000000E+000
+2.25031289111E+005, +6.22230332845E-002, +0.00000000000E+000
+3.50062578223E+005, +9.72987347258E-002, +0.00000000000E+000
+4.75093867334E+005, +1.30206405448E-001, +0.00000000000E+000
+6.00125156446E+005, +1.62571183243E-001, +0.00000000000E+000
+7.25156445557E+005, +1.94488345586E-001, +0.00000000000E+000
+8.50187734668E+005, +2.22168467779E-001, +0.00000000000E+000
+9.75219023780E+005, +2.51844333693E-001, +0.00000000000E+000
+1.10025031289E+006, +2.78094897111E-001, +0.00000000000E+000
+1.22528160200E+006, +3.03479724733E-001, +0.00000000000E+000
+1.35031289111E+006, +3.26689932846E-001, +0.00000000000E+000
+1.47534418023E+006, +3.47689578139E-001, +0.00000000000E+000
+1.60037546934E+006, +3.67322170444E-001, +0.00000000000E+000
+1.72540675845E+006, +3.85306417047E-001, +0.00000000000E+000
+1.85043804756E+006, +4.02444773252E-001, +0.00000000000E+000
+1.97546933667E+006, +4.17208215821E-001, +0.00000000000E+000
+2.10050062578E+006, +4.29759414285E-001, +0.00000000000E+000
+2.22553191489E+006, +4.41978244662E-001, +0.00000000000E+000
+2.35056320401E+006, +4.52479574138E-001, +0.00000000000E+000
+2.47559449312E+006, +4.61935575550E-001, +0.00000000000E+000
+2.60062578223E+006, +4.68757617978E-001, +0.00000000000E+000
+2.72565707134E+006, +4.75291393959E-001, +0.00000000000E+000
+2.85068836045E+006, +4.80350507240E-001, +0.00000000000E+000
+2.97571964956E+006, +4.83044469662E-001, +0.00000000000E+000
+3.10075093867E+006, +4.87533602224E-001, +0.00000000000E+000
+3.22578222778E+006, +4.88599465358E-001, +0.00000000000E+000
+3.35081351690E+006, +4.91952047438E-001, +0.00000000000E+000
+3.47584480601E+006, +4.92031665585E-001, +0.00000000000E+000
+3.60087609512E+006, +4.91767249818E-001, +0.00000000000E+000
+3.72590738423E+006, +4.92154198236E-001, +0.00000000000E+000
+3.85093867334E+006, +4.91262206840E-001, +0.00000000000E+000
+3.97596996245E+006, +4.89217121852E-001, +0.00000000000E+000
+4.10100125156E+006, +4.88016727959E-001, +0.00000000000E+000
+4.22603254068E+006, +4.85319959061E-001, +0.00000000000E+000
+4.35106382979E+006, +4.84180784454E-001, +0.00000000000E+000
+4.47609511890E+006, +4.81325035574E-001, +0.00000000000E+000
+4.60112640801E+006, +4.77571857167E-001, +0.00000000000E+000
+4.72615769712E+006, +4.75360151019E-001, +0.00000000000E+000
+4.85118898623E+006, +4.71221579377E-001, +0.00000000000E+000
+4.97622027534E+006, +4.66789117912E-001, +0.00000000000E+000
+5.10125156446E+006, +4.64201457163E-001, +0.00000000000E+000
+5.22628285357E+006, +4.59203221304E-001, +0.00000000000E+000
+5.35131414268E+006, +4.55495311200E-001, +0.00000000000E+000
+5.47634543179E+006, +4.51516442038E-001, +0.00000000000E+000
+5.60137672090E+006, +4.47117364739E-001, +0.00000000000E+000
+5.72640801001E+006, +4.43140083378E-001, +0.00000000000E+000
+5.85143929912E+006, +4.38386994490E-001, +0.00000000000E+000
+5.97647058824E+006, +4.34088915854E-001, +0.00000000000E+000
+6.10150187735E+006, +4.29543182942E-001, +0.00000000000E+000
+6.22653316646E+006, +4.24673421400E-001, +0.00000000000E+000
+6.35156445557E+006, +4.20912176905E-001, +0.00000000000E+000
+6.47659574468E+006, +4.16453275043E-001, +0.00000000000E+000
+6.60162703379E+006, +4.11491949762E-001, +0.00000000000E+000
+6.72665832290E+006, +4.07744560463E-001, +0.00000000000E+000
+6.85168961202E+006, +4.02989671219E-001, +0.00000000000E+000
+6.97672090113E+006, +3.99029443930E-001, +0.00000000000E+000
+7.10175219024E+006, +3.94460404074E-001, +0.00000000000E+000
+7.22678347935E+006, +3.90174370308E-001, +0.00000000000E+000
+7.35181476846E+006, +3.85567941823E-001, +0.00000000000E+000
+7.47684605757E+006, +3.81680798152E-001, +0.00000000000E+000
+7.60187734668E+006, +3.77901527173E-001, +0.00000000000E+000
+7.72690863579E+006, +3.73310185843E-001, +0.00000000000E+000
+7.85193992491E+006, +3.69215799632E-001, +0.00000000000E+000
+7.97697121402E+006, +3.64530388002E-001, +0.00000000000E+000
+8.10200250313E+006, +3.61377577224E-001, +0.00000000000E+000
+8.22703379224E+006, +3.57361596170E-001, +0.00000000000E+000
+8.35206508135E+006, +3.53478445053E-001, +0.00000000000E+000
+8.47709637046E+006, +3.49249414811E-001, +0.00000000000E+000
+8.60212765957E+006, +3.46425015096E-001, +0.00000000000E+000
+8.72715894869E+006, +3.42313886312E-001, +0.00000000000E+000
+8.85219023780E+006, +3.38420488524E-001, +0.00000000000E+000
+8.97722152691E+006, +3.35087941897E-001, +0.00000000000E+000
+9.10225281602E+006, +3.31341830688E-001, +0.00000000000E+000
+9.22728410513E+006, +3.28101769727E-001, +0.00000000000E+000
+9.35231539424E+006, +3.24424077856E-001, +0.00000000000E+000
+9.47734668335E+006, +3.21353651520E-001, +0.00000000000E+000
+9.60237797247E+006, +3.17187419596E-001, +0.00000000000E+000
+9.72740926158E+006, +3.14248017792E-001, +0.00000000000E+000
+9.85244055069E+006, +3.10743931615E-001, +0.00000000000E+000
+9.97747183980E+006, +3.07861738648E-001, +0.00000000000E+000
+1.01025031289E+007, +3.04803007786E-001, +0.00000000000E+000
+1.02275344180E+007, +3.01557613174E-001, +0.00000000000E+000
+1.03525657071E+007, +2.98355015372E-001, +0.00000000000E+000
+1.04775969962E+007, +2.95749564249E-001, +0.00000000000E+000
+1.06026282854E+007, +2.92487704242E-001, +0.00000000000E+000
+1.07276595745E+007, +2.89082757893E-001, +0.00000000000E+000
+1.08526908636E+007, +2.86576398841E-001, +0.00000000000E+000
+1.09777221527E+007, +2.83590325981E-001, +0.00000000000E+000
+1.11027534418E+007, +2.80881309693E-001, +0.00000000000E+000
+1.12277847309E+007, +2.78275307707E-001, +0.00000000000E+000
+1.13528160200E+007, +2.74963307704E-001, +0.00000000000E+000
+1.14778473091E+007, +2.72947495972E-001, +0.00000000000E+000
+1.16028785982E+007, +2.70052132299E-001, +0.00000000000E+000
+1.17279098874E+007, +2.67152929228E-001, +0.00000000000E+000
+1.18529411765E+007, +2.64836089680E-001, +0.00000000000E+000
+1.19779724656E+007, +2.62202717676E-001, +0.00000000000E+000
+1.21030037547E+007, +2.59780932416E-001, +0.00000000000E+000
+1.22280350438E+007, +2.57311027191E-001, +0.00000000000E+000
+1.23530663329E+007, +2.54699267231E-001, +0.00000000000E+000
+1.24780976220E+007, +2.52364573771E-001, +0.00000000000E+000
+1.26031289111E+007, +2.49934652152E-001, +0.00000000000E+000
+1.27281602003E+007, +2.47684764002E-001, +0.00000000000E+000
+1.28531914894E+007, +2.45393618336E-001, +0.00000000000E+000
+1.29782227785E+007, +2.42576881288E-001, +0.00000000000E+000
+1.31032540676E+007, +2.40538827698E-001, +0.00000000000E+000
+1.32282853567E+007, +2.38149749928E-001, +0.00000000000E+000
+1.33533166458E+007, +2.36099243863E-001, +0.00000000000E+000
+1.34783479349E+007, +2.34067457250E-001, +0.00000000000E+000
+1.36033792240E+007, +2.31741153068E-001, +0.00000000000E+000
+1.37284105131E+007, +2.29701193146E-001, +0.00000000000E+000
+1.38534418023E+007, +2.27400846317E-001, +0.00000000000E+000
+1.39784730914E+007, +2.25080805197E-001, +0.00000000000E+000
+1.41035043805E+007, +2.23363424111E-001, +0.00000000000E+000
+1.42285356696E+007, +2.21147841954E-001, +0.00000000000E+000
+1.43535669587E+007, +2.19679092324E-001, +0.00000000000E+000
+1.44785982478E+007, +2.17536975501E-001, +0.00000000000E+000
+1.46036295369E+007, +2.15108393972E-001, +0.00000000000E+000
+1.47286608260E+007, +2.13700321279E-001, +0.00000000000E+000
+1.48536921151E+007, +2.11351662757E-001, +0.00000000000E+000
+1.49787234043E+007, +2.09754752872E-001, +0.00000000000E+000
+1.51037546934E+007, +2.07543901728E-001, +0.00000000000E+000
+1.52287859825E+007, +2.06155816054E-001, +0.00000000000E+000
+1.53538172716E+007, +2.04431718916E-001, +0.00000000000E+000
+1.54788485607E+007, +2.02623492480E-001, +0.00000000000E+000
+1.56038798498E+007, +2.01177507818E-001, +0.00000000000E+000
+1.57289111389E+007, +1.99077450086E-001, +0.00000000000E+000
+1.58539424280E+007, +1.97514697883E-001, +0.00000000000E+000
+1.59789737171E+007, +1.95950671815E-001, +0.00000000000E+000
+1.61040050063E+007, +1.93902742549E-001, +0.00000000000E+000
+1.62290362954E+007, +1.92716401019E-001, +0.00000000000E+000
+1.63540675845E+007, +1.90717955684E-001, +0.00000000000E+000
+1.64790988736E+007, +1.89160470349E-001, +0.00000000000E+000
+1.66041301627E+007, +1.87704300354E-001, +0.00000000000E+000
+1.67291614518E+007, +1.86331071753E-001, +0.00000000000E+000
+1.68541927409E+007, +1.84343919181E-001, +0.00000000000E+000
+1.69792240300E+007, +1.82718038180E-001, +0.00000000000E+000
+1.71042553191E+007, +1.81623495491E-001, +0.00000000000E+000
+1.72292866083E+007, +1.79648450874E-001, +0.00000000000E+000
+1.73543178974E+007, +1.77988488614E-001, +0.00000000000E+000
+1.74793491865E+007, +1.77462061222E-001, +0.00000000000E+000
+1.76043804756E+007, +1.75200143552E-001, +0.00000000000E+000
+1.77294117647E+007, +1.74104313859E-001, +0.00000000000E+000
+1.78544430538E+007, +1.72465438473E-001, +0.00000000000E+000
+1.79794743429E+007, +1.71217388393E-001, +0.00000000000E+000
+1.81045056320E+007, +1.69194160933E-001, +0.00000000000E+000
+1.82295369212E+007, +1.68099431271E-001, +0.00000000000E+000
+1.83545682103E+007, +1.66634132270E-001, +0.00000000000E+000
+1.84795994994E+007, +1.65924138731E-001, +0.00000000000E+000
+1.86046307885E+007, +1.64250330434E-001, +0.00000000000E+000
+1.87296620776E+007, +1.62779286153E-001, +0.00000000000E+000
+1.88546933667E+007, +1.61639522173E-001, +0.00000000000E+000
+1.89797246558E+007, +1.60281286535E-001, +0.00000000000E+000
+1.91047559449E+007, +1.59064399749E-001, +0.00000000000E+000
+1.92297872340E+007, +1.57826632828E-001, +0.00000000000E+000
+1.93548185232E+007, +1.56756793136E-001, +0.00000000000E+000
+1.94798498123E+007, +1.55247801610E-001, +0.00000000000E+000
+1.96048811014E+007, +1.54120845098E-001, +0.00000000000E+000
+1.97299123905E+007, +1.52886838874E-001, +0.00000000000E+000
+1.98549436796E+007, +1.51533701603E-001, +0.00000000000E+000
+1.99799749687E+007, +1.50565339955E-001, +0.00000000000E+000
+2.01050062578E+007, +1.49449702202E-001, +0.00000000000E+000
+2.02300375469E+007, +1.47701598502E-001, +0.00000000000E+000
+2.03550688360E+007, +1.46997874797E-001, +0.00000000000E+000
+2.04801001252E+007, +1.46172183070E-001, +0.00000000000E+000
+2.06051314143E+007, +1.44742081700E-001, +0.00000000000E+000
+2.07301627034E+007, +1.43415845042E-001, +0.00000000000E+000
+2.08551939925E+007, +1.42236713949E-001, +0.00000000000E+000
+2.09802252816E+007, +1.40918592167E-001, +0.00000000000E+000
+2.11052565707E+007, +1.40186630434E-001, +0.00000000000E+000
+2.12302878598E+007, +1.38696163529E-001, +0.00000000000E+000
+2.13553191489E+007, +1.38610400991E-001, +0.00000000000E+000
+2.14803504380E+007, +1.37206576691E-001, +0.00000000000E+000
+2.16053817272E+007, +1.35668464225E-001, +0.00000000000E+000
+2.17304130163E+007, +1.34735241420E-001, +0.00000000000E+000
+2.18554443054E+007, +1.34388942564E-001, +0.00000000000E+000
+2.19804755945E+007, +1.32613243098E-001, +0.00000000000E+000
+2.21055068836E+007, +1.31317167055E-001, +0.00000000000E+000
+2.22305381727E+007, +1.30074447231E-001, +0.00000000000E+000
+2.23555694618E+007, +1.29544397092E-001, +0.00000000000E+000
+2.24806007509E+007, +1.28213280777E-001, +0.00000000000E+000
+2.26056320401E+007, +1.27457925745E-001, +0.00000000000E+000
+2.27306633292E+007, +1.26160306953E-001, +0.00000000000E+000
+2.28556946183E+007, +1.25908379239E-001, +0.00000000000E+000
+2.29807259074E+007, +1.24603853163E-001, +0.00000000000E+000
+2.31057571965E+007, +1.23606909912E-001, +0.00000000000E+000
+2.32307884856E+007, +1.22979721328E-001, +0.00000000000E+000
+2.33558197747E+007, +1.22020669839E-001, +0.00000000000E+000
+2.34808510638E+007, +1.20913321129E-001, +0.00000000000E+000
+2.36058823529E+007, +1.19931798744E-001, +0.00000000000E+000
+2.37309136421E+007, +1.19397333430E-001, +0.00000000000E+000
+2.38559449312E+007, +1.18386713673E-001, +0.00000000000E+000
+2.39809762203E+007, +1.16732799183E-001, +0.00000000000E+000
+2.41060075094E+007, +1.16011613476E-001, +0.00000000000E+000
+2.42310387985E+007, +1.14983411186E-001, +0.00000000000E+000
+2.43560700876E+007, +1.14794974734E-001, +0.00000000000E+000
+2.44811013767E+007, +1.13131768883E-001, +0.00000000000E+000
+2.46061326658E+007, +1.12791622415E-001, +0.00000000000E+000
+2.47311639549E+007, +1.12319164316E-001, +0.00000000000E+000
+2.48561952441E+007, +1.11215794238E-001, +0.00000000000E+000
+2.49812265332E+007, +1.10476136222E-001, +0.00000000000E+000
+2.51062578223E+007, +1.09919546706E-001, +0.00000000000E+000
+2.52312891114E+007, +1.08679787458E-001, +0.00000000000E+000
+2.53563204005E+007, +1.08547745597E-001, +0.00000000000E+000
+2.54813516896E+007, +1.08186123604E-001, +0.00000000000E+000
+2.56063829787E+007, +1.06606336941E-001, +0.00000000000E+000
+2.57314142678E+007, +1.06179661454E-001, +0.00000000000E+000
+2.58564455569E+007, +1.05190201562E-001, +0.00000000000E+000
+2.59814768461E+007, +1.04361105836E-001, +0.00000000000E+000
+2.61065081352E+007, +1.03506250672E-001, +0.00000000000E+000
+2.62315394243E+007, +1.02390612868E-001, +0.00000000000E+000
+2.63565707134E+007, +1.02182937602E-001, +0.00000000000E+000
+2.64816020025E+007, +1.01311001279E-001, +0.00000000000E+000
+2.66066332916E+007, +1.00654046426E-001, +0.00000000000E+000
+2.67316645807E+007, +9.96297798063E-002, +0.00000000000E+000
+2.68566958698E+007, +9.87578898731E-002, +0.00000000000E+000
+2.69817271589E+007, +9.82944566862E-002, +0.00000000000E+000
+2.71067584481E+007, +9.71611396458E-002, +0.00000000000E+000
+2.72317897372E+007, +9.65069283966E-002, +0.00000000000E+000
+2.73568210263E+007, +9.58910299126E-002, +0.00000000000E+000
+2.74818523154E+007, +9.50409440885E-002, +0.00000000000E+000
+2.76068836045E+007, +9.45120834433E-002, +0.00000000000E+000
+2.77319148936E+007, +9.35908890685E-002, +0.00000000000E+000
+2.78569461827E+007, +9.30835051218E-002, +0.00000000000E+000
+2.79819774718E+007, +9.22065481837E-002, +0.00000000000E+000
+2.81070087610E+007, +9.08920078148E-002, +0.00000000000E+000
+2.82320400501E+007, +9.10553375420E-002, +0.00000000000E+000
+2.83570713392E+007, +8.99954423417E-002, +0.00000000000E+000
+2.84821026283E+007, +8.92638971339E-002, +0.00000000000E+000
+2.86071339174E+007, +8.88293163084E-002, +0.00000000000E+000
+2.87321652065E+007, +8.83123639965E-002, +0.00000000000E+000
+2.88571964956E+007, +8.69251364593E-002, +0.00000000000E+000
+2.89822277847E+007, +8.63379816590E-002, +0.00000000000E+000
+2.91072590738E+007, +8.61068381135E-002, +0.00000000000E+000
+2.92322903630E+007, +8.51243861963E-002, +0.00000000000E+000
+2.93573216521E+007, +8.45283604088E-002, +0.00000000000E+000
+2.94823529412E+007, +8.28408872562E-002, +0.00000000000E+000
+2.96073842303E+007, +8.25003933640E-002, +0.00000000000E+000
+2.97324155194E+007, +8.26545078851E-002, +0.00000000000E+000
+2.98574468085E+007, +8.20678769320E-002, +0.00000000000E+000
+2.99824780976E+007, +8.12491644507E-002, +0.00000000000E+000
+3.01075093867E+007, +8.02590155528E-002, +0.00000000000E+000
+3.02325406758E+007, +7.94193881990E-002, +0.00000000000E+000
+3.03575719650E+007, +7.90977315120E-002, +0.00000000000E+000
+3.04826032541E+007, +7.82824109098E-002, +0.00000000000E+000
+3.06076345432E+007, +7.81922559435E-002, +0.00000000000E+000
+3.07326658323E+007, +7.63302679362E-002, +0.00000000000E+000
+3.08576971214E+007, +7.61958777358E-002, +0.00000000000E+000
+3.09827284105E+007, +7.54649706989E-002, +0.00000000000E+000
+3.11077596996E+007, +7.52575401621E-002, +0.00000000000E+000
+3.12327909887E+007, +7.45667631528E-002, +0.00000000000E+000
+3.13578222778E+007, +7.39679735282E-002, +0.00000000000E+000
+3.14828535670E+007, +7.38011944671E-002, +0.00000000000E+000
+3.16078848561E+007, +7.26527178849E-002, +0.00000000000E+000
+3.17329161452E+007, +7.21626229579E-002, +0.00000000000E+000
+3.18579474343E+007, +7.18852943698E-002, +0.00000000000E+000
+3.19829787234E+007, +7.08734334893E-002, +0.00000000000E+000
+3.21080100125E+007, +7.02055312112E-002, +0.00000000000E+000
+3.22330413016E+007, +6.93829041990E-002, +0.00000000000E+000
+3.23580725907E+007, +6.88427187139E-002, +0.00000000000E+000
+3.24831038798E+007, +6.84237751103E-002, +0.00000000000E+000
+3.26081351690E+007, +6.78138283661E-002, +0.00000000000E+000
+3.27331664581E+007, +6.73822911579E-002, +0.00000000000E+000
+3.28581977472E+007, +6.67662660846E-002, +0.00000000000E+000
+3.29832290363E+007, +6.61566978188E-002, +0.00000000000E+000
+3.31082603254E+007, +6.55709925633E-002, +0.00000000000E+000
+3.32332916145E+007, +6.48048628671E-002, +0.00000000000E+000
+3.33583229036E+007, +6.38525246992E-002, +0.00000000000E+000
+3.34833541927E+007, +6.33235976736E-002, +0.00000000000E+000
+3.36083854819E+007, +6.28756051176E-002, +0.00000000000E+000
+3.37334167710E+007, +6.22889124278E-002, +0.00000000000E+000
+3.38584480601E+007, +6.22268405057E-002, +0.00000000000E+000
+3.39834793492E+007, +6.10040528430E-002, +0.00000000000E+000
+3.41085106383E+007, +6.09789500798E-002, +0.00000000000E+000
+3.42335419274E+007, +6.02527008532E-002, +0.00000000000E+000
+3.43585732165E+007, +5.98116146516E-002, +0.00000000000E+000
+3.44836045056E+007, +5.89925900204E-002, +0.00000000000E+000
+3.46086357947E+007, +5.87917057240E-002, +0.00000000000E+000
+3.47336670839E+007, +5.76614045489E-002, +0.00000000000E+000
+3.48586983730E+007, +5.65298679784E-002, +0.00000000000E+000
+3.49837296621E+007, +5.66735295455E-002, +0.00000000000E+000
+3.51087609512E+007, +5.61355917736E-002, +0.00000000000E+000
+3.52337922403E+007, +5.56023077761E-002, +0.00000000000E+000
+3.53588235294E+007, +5.50421004550E-002, +0.00000000000E+000
+3.54838548185E+007, +5.45668946727E-002, +0.00000000000E+000
+3.56088861076E+007, +5.42461747032E-002, +0.00000000000E+000
+3.57339173967E+007, +5.34655080391E-002, +0.00000000000E+000
+3.58589486859E+007, +5.25453017807E-002, +0.00000000000E+000
+3.59839799750E+007, +5.23008259012E-002, +0.00000000000E+000
+3.61090112641E+007, +5.13288424063E-002, +0.00000000000E+000
+3.62340425532E+007, +5.18156670138E-002, +0.00000000000E+000
+3.63590738423E+007, +5.08043115643E-002, +0.00000000000E+000
+3.64841051314E+007, +5.06846358458E-002, +0.00000000000E+000
+3.66091364205E+007, +4.96416820172E-002, +0.00000000000E+000
+3.67341677096E+007, +4.91079616286E-002, +0.00000000000E+000
+3.68591989987E+007, +4.92236580019E-002, +0.00000000000E+000
+3.69842302879E+007, +4.82256499794E-002, +0.00000000000E+000
+3.71092615770E+007, +4.73441752847E-002, +0.00000000000E+000
+3.72342928661E+007, +4.74700293676E-002, +0.00000000000E+000
+3.73593241552E+007, +4.73026070479E-002, +0.00000000000E+000
+3.74843554443E+007, +4.63731434371E-002, +0.00000000000E+000
+3.76093867334E+007, +4.56526485513E-002, +0.00000000000E+000
+3.77344180225E+007, +4.48281001729E-002, +0.00000000000E+000
+3.78594493116E+007, +4.48388637003E-002, +0.00000000000E+000
+3.79844806008E+007, +4.41022112656E-002, +0.00000000000E+000
+3.81095118899E+007, +4.32316884310E-002, +0.00000000000E+000
+3.82345431790E+007, +4.33578054289E-002, +0.00000000000E+000
+3.83595744681E+007, +4.23420374199E-002, +0.00000000000E+000
+3.84846057572E+007, +4.15536593494E-002, +0.00000000000E+000
+3.86096370463E+007, +4.16269736857E-002, +0.00000000000E+000
+3.87346683354E+007, +4.07928936768E-002, +0.00000000000E+000
+3.88596996245E+007, +4.02541569662E-002, +0.00000000000E+000
+3.89847309136E+007, +4.01132993104E-002, +0.00000000000E+000
+3.91097622028E+007, +3.93272815045E-002, +0.00000000000E+000
+3.92347934919E+007, +3.92162923223E-002, +0.00000000000E+000
+3.93598247810E+007, +3.82644920254E-002, +0.00000000000E+000
+3.94848560701E+007, +3.80347362410E-002, +0.00000000000E+000
+3.96098873592E+007, +3.74958532794E-002, +0.00000000000E+000
+3.97349186483E+007, +3.71583999432E-002, +0.00000000000E+000
+3.98599499374E+007, +3.63093236823E-002, +0.00000000000E+000
+3.99849812265E+007, +3.59823233448E-002, +0.00000000000E+000
+4.01100125156E+007, +3.52346979749E-002, +0.00000000000E+000
